# 'raman shift'	'Int_5.6GPa_1'
46.756	4371.25
47.468	4470.63
48.18	4479.38
48.892	4525
49.604	4590.63
50.316	4613.13
51.028	4690.63
51.74	4745.63
52.452	4790
53.164	4835.63
53.875	4983.75
54.587	5020.63
55.298	5121.88
56.01	5201.25
56.721	5353.75
57.432	5409.38
58.143	5623.75
58.854	5790.63
59.565	5932.5
60.276	6181.25
60.987	6305.63
61.698	6443.75
62.408	6717.5
63.119	6819.38
63.829	7071.88
64.54	7426.88
65.25	7450.63
65.96	7704.38
66.671	7891.88
67.381	8088.13
68.091	8126.25
68.801	8292.5
69.51	8391.88
70.22	8518.13
70.93	8545
71.64	8628.75
72.349	8870.63
73.059	8818.75
73.768	8927.5
74.477	8865.63
75.186	8882.5
75.896	8863.75
76.605	8994.38
77.314	9115
78.023	9084.38
78.731	9037.5
79.44	9126.88
80.149	9109.38
80.857	9017.5
81.566	9145.63
82.274	9073.13
82.983	9243.13
83.691	9208.13
84.399	9258.13
85.107	9364.38
85.815	9246.88
86.523	9402.5
87.231	9325.63
87.939	9293.13
88.647	9255.63
89.354	9387.5
90.062	9386.88
90.769	9486.25
91.477	9556.88
92.184	9553.13
92.891	9456.25
93.598	9659.38
94.306	9390
95.013	9535.63
95.719	9522.5
96.426	9673.75
97.133	9453.13
97.84	9525.63
98.546	9620
99.253	9645
99.959	9707.5
100.666	9676.25
101.372	9826.88
102.078	9837.5
102.784	9747.5
103.49	9927.5
104.196	10085.6
104.902	10006.9
105.608	10016.9
106.314	10154.4
107.02	10031.3
107.725	9973.75
108.431	9938.13
109.136	10062.5
109.841	9947.5
110.547	9979.38
111.252	9910
111.957	9888.13
112.662	9840
113.367	9788.75
114.072	9939.38
114.777	9965.63
115.481	9930
116.186	9887.5
116.891	9910
117.595	9926.88
118.299	9879.38
119.004	10043.8
119.708	9981.25
120.412	10103.8
121.116	9973.75
121.82	10111.9
122.524	10224.4
123.228	10424.4
123.932	10451.3
124.636	10636.3
125.339	10469.4
126.043	10610.6
126.746	10610.6
127.45	10675
128.153	10773.1
128.856	11004.4
129.559	11205.6
130.262	11431.9
130.965	11541.9
131.668	11750
132.371	12104.4
133.074	12322.5
133.776	12555
134.479	12814.4
135.181	13416.3
135.884	13895
136.586	14405
137.289	14851.3
137.991	15635.6
138.693	16426.9
139.395	17455
140.097	17946.9
140.799	18710
141.501	19390
142.202	19665
142.904	20168.8
143.606	19988.1
144.307	19470
145.008	18838.1
145.71	17977.5
146.411	17281.9
147.112	16266.3
147.813	15648.1
148.514	15023.1
149.215	14173.8
149.916	13545
150.617	12984.4
151.318	12643.1
152.018	12139.4
152.719	11801.9
153.419	11593.1
154.12	11618.8
154.82	11147.5
155.52	10983.1
156.22	10833.1
156.921	10953.8
157.621	10756.3
158.321	10568.1
159.02	10619.4
159.72	10522.5
160.42	10495.6
161.119	10599.4
161.819	10526.3
162.518	10458.1
163.218	10373.8
163.917	10440.6
164.616	10355
165.316	10360.6
166.015	10552.5
166.714	10405.6
167.412	10638.8
168.111	10503.8
168.81	10410
169.509	10565.6
170.207	10597.5
170.906	10649.4
171.604	10450.6
172.303	10626.9
173.001	10676.9
173.699	10576.9
174.397	10487.5
175.095	10587.5
175.793	10410.6
176.491	10455.6
177.189	10426.9
177.887	10495.6
178.584	10383.8
179.282	10536.3
179.98	10246.3
180.677	10576.9
181.374	10263.8
182.072	10485.6
182.769	10478.8
183.466	10583.8
184.163	10561.3
184.86	10546.3
185.557	10776.9
186.254	10913.8
186.95	11156.9
187.647	11296.9
188.344	11513.8
189.04	11794.4
189.737	11868.1
190.433	12022.5
191.129	12451.9
191.825	12500.6
192.521	12710.6
193.217	12718.1
193.913	13038.8
194.609	12857.5
195.305	12685.6
196.001	12481.9
196.696	12331.3
197.392	12112.5
198.087	11976.3
198.783	11773.8
199.478	11541.9
200.173	11380
200.869	11355.6
201.564	11444.4
202.259	11479.4
202.954	11346.9
203.649	11338.8
204.343	11579.4
205.038	11437.5
205.733	11672.5
206.427	11661.3
207.122	11720
207.816	11669.4
208.51	11601.9
209.205	11580.6
209.899	11558.8
210.593	11281.3
211.287	11371.3
211.981	11422.5
212.675	11111.3
213.369	11358.8
214.062	11176.9
214.756	11226.9
215.449	11161.3
216.143	11013.8
216.836	11063.1
217.53	11232.5
218.223	11091.9
218.916	11174.4
219.609	11131.9
220.302	11310.6
220.995	11446.9
221.688	11372.5
222.381	11550.6
223.073	11426.9
223.766	11343.8
224.458	11600
225.151	11701.3
225.843	11963.8
226.536	11896.9
227.228	11656.3
227.92	11978.1
228.612	11875.6
229.304	11861.3
229.996	11863.1
230.688	11779.4
231.38	11778.8
232.071	11716.3
232.763	11653.8
233.454	11696.9
234.146	11748.1
234.837	11533.8
235.529	11610
236.22	11627.5
236.911	11493.1
237.602	11463.8
238.293	11328.8
238.984	11245.6
239.675	11365.6
240.366	11195
241.056	11300
241.747	11438.1
242.437	11366.9
243.128	11276.3
243.818	11345.6
244.508	11403.1
245.199	11193.1
245.889	11409.4
246.579	11235
247.269	11179.4
247.959	11297.5
248.649	11070.6
249.338	11396.3
250.028	11241.9
250.718	11299.4
251.407	11064.4
252.097	11215.6
252.786	11171.3
253.475	11082.5
254.165	11120
254.854	11039.4
255.543	11019.4
256.232	10981.9
256.921	10989.4
257.61	11045.6
258.298	10907.5
258.987	11015
259.676	10925.6
260.364	10900
261.053	10789.4
261.741	10865
262.429	10815
263.117	10817.5
263.806	10749.4
264.494	10878.8
265.182	10714.4
265.87	10671.9
266.557	10786.9
267.245	10787.5
267.933	10732.5
268.62	10778.8
269.308	10762.5
269.995	10853.1
270.683	10585
271.37	10737.5
272.057	10590
272.745	10631.9
273.432	10791.3
274.119	10785
274.805	10724.4
275.492	10762.5
276.179	10637.5
276.866	10759.4
277.552	10715.6
278.239	10701.3
278.925	10911.9
279.612	10760
280.298	10784.4
280.984	10806.3
281.67	10830
282.357	10863.1
283.043	10619.4
283.728	10938.8
284.414	10721.9
285.1	10946.9
285.786	10863.8
286.471	10768.1
287.157	10754.4
287.842	10793.1
288.528	10703.1
289.213	10740
289.898	10781.3
290.583	10580
291.269	10600.6
291.954	10690
292.638	10688.1
293.323	10543.1
294.008	10710
294.693	10609.4
295.377	10594.4
296.062	10490.6
296.746	10535
297.431	10583.1
298.115	10480.6
298.799	10389.4
299.483	10196.3
300.168	10356.9
300.852	10446.9
301.536	10186.3
302.219	10282.5
302.903	10212.5
303.587	10145.6
304.27	10076.3
304.954	10141.9
305.638	10259.4
306.321	10197.5
307.004	10123.1
307.687	10155
308.371	10213.8
309.054	10076.9
309.737	10168.8
310.42	10250.6
311.103	9928.75
311.785	10093.1
312.468	9955
313.151	9973.75
313.833	9948.75
314.516	10034.4
315.198	10003.8
315.88	10048.8
316.563	9933.75
317.245	10046.9
317.927	9850.63
318.609	9869.38
319.291	9916.25
319.973	9838.13
320.655	9975
321.336	9964.38
322.018	9955.63
322.7	9976.25
323.381	9909.38
324.063	9838.75
324.744	9884.38
325.425	9771.88
326.106	9840.63
326.787	9902.5
327.468	9743.13
328.149	9658.75
328.83	9801.88
329.511	9955
330.192	9763.75
330.873	9887.5
331.553	9751.25
332.234	9751.88
332.914	9877.5
333.594	9780.63
334.275	9978.75
334.955	9878.75
335.635	9876.25
336.315	9891.88
336.995	9782.5
337.675	9905
338.355	9860.63
339.034	9856.88
339.714	9786.88
340.394	9898.13
341.073	9802.5
341.753	9778.13
342.432	9791.88
343.111	9791.25
343.791	9740.63
344.47	9865.63
345.149	9766.88
345.828	10076.9
346.507	9753.13
347.186	9790.63
347.864	9893.75
348.543	9770.63
349.222	9862.5
349.9	10004.4
350.579	9852.5
351.257	9893.75
351.935	9875.63
352.613	9908.75
353.292	9970
353.97	9943.13
354.648	9877.5
355.326	9886.88
356.004	9913.13
356.681	9946.25
357.359	9802.5
358.037	10018.8
358.714	9855
359.392	9996.25
360.069	9852.5
360.746	9976.88
361.424	9906.25
362.101	9964.38
362.778	9810.63
363.455	10034.4
364.132	9823.13
364.809	9941.25
365.486	9811.25
366.162	9890.63
366.839	9810.63
367.515	9913.13
368.192	9879.38
368.868	9896.25
369.545	9856.88
370.221	9909.38
370.897	9961.88
371.573	9908.13
372.249	9931.25
372.925	9956.88
373.601	9935.63
374.277	10043.8
374.953	9846.88
375.628	9807.5
376.304	9964.38
376.979	9936.88
377.655	9816.25
378.33	9856.25
379.006	9911.25
379.681	9920.63
380.356	9814.38
381.031	9995.63
381.706	9802.5
382.381	9860.63
383.056	9890
383.73	9900.63
384.405	9744.38
385.08	9785.63
385.754	9876.25
386.429	9758.13
387.103	9748.13
387.777	9963.13
388.452	9795.63
389.126	9983.13
389.8	9932.5
390.474	9839.38
391.148	9820.63
391.822	9787.5
392.495	9951.25
393.169	9801.25
393.843	9858.13
394.516	9863.75
395.19	9898.13
395.863	9997.5
396.537	9733.13
397.21	9937.5
397.883	9853.13
398.556	9783.75
399.229	9783.75
399.902	9831.25
400.575	10053.1
401.248	10016.9
401.921	9683.13
402.593	9888.75
403.266	9798.13
403.938	9878.75
404.611	9905.63
405.283	9740
405.955	9805.63
406.628	9818.75
407.3	9888.75
407.972	9982.5
408.644	9748.75
409.316	9946.25
409.987	9901.88
410.659	9940
411.331	9921.88
412.002	10003.1
412.674	9899.38
413.345	9933.13
414.017	9965.63
414.688	9913.75
415.359	9784.38
416.031	9783.75
416.702	9973.13
417.373	9964.38
418.044	9842.5
418.714	9882.5
419.385	9816.25
420.056	9995.63
420.726	9905
421.397	9807.5
422.068	9910
422.738	9983.13
423.408	9840
424.079	9909.38
424.749	9999.38
425.419	9875
426.089	9941.88
426.759	10007.5
427.429	9888.13
428.099	9776.25
428.768	9827.5
429.438	9753.75
430.107	9990
430.777	9980
431.446	9752.5
432.116	9852.5
432.785	9984.38
433.454	9964.38
434.123	9800.63
434.792	9973.75
435.461	9944.38
436.13	9887.5
436.799	9966.25
437.468	9977.5
438.137	9897.5
438.805	10076.3
439.474	9994.38
440.142	9996.88
440.811	10155
441.479	9894.38
442.147	9998.13
442.815	9903.75
443.484	9998.13
444.152	9954.38
444.819	9946.25
445.487	10042.5
446.155	10184.4
446.823	10045
447.491	10043.8
448.158	10025
448.826	10041.3
449.493	10187.5
450.16	10082.5
450.828	10148.8
451.495	10196.3
452.162	10130.6
452.829	9844.38
453.496	10270.6
454.163	10070.6
454.83	10003.1
455.496	10258.8
456.163	10138.1
456.83	10132.5
457.496	10189.4
458.163	10086.9
458.829	10269.4
459.495	10135
460.162	10129.4
460.828	10067.5
461.494	10188.1
462.16	10165
462.826	10218.8
463.492	10155
464.157	10180.6
464.823	10291.3
465.489	10126.3
466.154	10338.8
466.82	10238.8
467.485	10225.6
468.151	10143.1
468.816	10159.4
469.481	10284.4
470.146	10108.8
470.811	10156.3
471.476	10160
472.141	10166.9
472.806	10280.6
473.471	10181.9
474.135	10191.3
474.8	10229.4
475.465	10316.9
476.129	10416.9
476.793	10225.6
477.458	10303.8
478.122	10200
478.786	10267.5
479.45	10172.5
480.114	10221.9
480.778	10226.9
481.442	10080
482.106	10216.9
482.769	10207.5
483.433	10349.4
484.097	10257.5
484.76	10127.5
485.424	10341.3
486.087	10267.5
486.75	10325
487.413	10225
488.076	10318.8
488.74	10280.6
489.402	10222.5
490.065	10198.1
490.728	10256.3
491.391	10332.5
492.054	10285.6
492.716	10318.1
493.379	10287.5
494.041	10196.9
494.704	10258.8
495.366	10324.4
496.028	10392.5
496.69	10285
497.352	10282.5
498.014	10259.4
498.676	10275
499.338	10345
500	10211.9
500.662	10284.4
501.323	10218.1
501.985	10150.6
502.646	10300.6
503.308	10289.4
503.969	10265
504.63	10290
505.292	10335.6
505.953	10285
506.614	10334.4
507.275	10327.5
507.936	10316.3
508.597	10191.9
509.257	10438.8
509.918	10323.8
510.579	10261.3
511.239	10397.5
511.9	10321.9
512.56	10334.4
513.22	10237.5
513.881	10141.3
514.541	10312.5
515.201	10328.8
515.861	10356.3
516.521	10135.6
517.181	10357.5
517.84	10294.4
518.5	10223.1
519.16	10386.3
519.819	10276.9
520.479	10265.6
521.138	10178.8
521.798	10374.4
522.457	10313.1
523.116	10346.9
523.775	10388.8
524.434	10268.8
525.093	10409.4
525.752	10388.8
526.411	10345.6
527.07	10386.9
527.729	10291.3
528.387	10317.5
529.046	10434.4
529.704	10358.1
530.363	10268.1
531.021	10394.4
531.679	10211.3
532.338	10300.6
532.996	10185
533.654	10236.9
534.312	10302.5
534.97	10321.3
535.627	10316.9
536.285	10265.6
536.943	10293.1
537.6	10221.9
538.258	10266.9
538.915	10128.8
539.573	10197.5
540.23	10266.3
540.887	10377.5
541.544	10268.1
542.202	10210.6
542.859	10260
543.516	10241.3
544.172	10336.9
544.829	10323.1
545.486	10280.6
546.143	10276.9
546.799	10234.4
547.456	10346.9
548.112	10270.6
548.768	10341.3
549.425	10238.1
550.081	10281.3
550.737	10323.1
551.393	10286.3
552.049	10338.1
552.705	10325.6
553.361	10205
554.017	10358.8
554.672	10172.5
555.328	10244.4
555.983	10257.5
556.639	10342.5
557.294	10214.4
557.95	10231.3
558.605	10345
559.26	10162.5
559.915	10163.8
560.57	10188.1
561.225	10305
561.88	10200
562.535	10190.6
563.19	10276.3
563.844	10255.6
564.499	10159.4
565.154	10256.3
565.808	10211.3
566.462	10226.9
567.117	10344.4
567.771	10383.1
568.425	10327.5
569.079	10141.9
569.733	10305.6
570.387	10284.4
571.041	10336.3
571.695	10180.6
572.349	10065.6
573.002	10323.8
573.656	10181.3
574.309	10197.5
574.963	10297.5
575.616	10256.3
576.269	10326.3
576.923	10440.6
577.576	10332.5
578.229	10184.4
578.882	10265.6
579.535	10405.6
580.188	10161.9
580.84	10235
581.493	10172.5
582.146	10230
582.798	10405
583.451	10358.1
584.103	10246.9
584.755	10340.6
585.408	10281.3
586.06	10423.8
586.712	10352.5
587.364	10186.9
588.016	10386.3
588.668	10277.5
589.32	10335
589.972	10361.3
590.623	10444.4
591.275	10368.8
591.926	10333.1
592.578	10498.8
593.229	10294.4
593.881	10264.4
594.532	10385
595.183	10271.3
595.834	10253.8
596.485	10284.4
597.136	10302.5
597.787	10393.1
598.438	10348.8
599.089	10279.4
599.739	10359.4
600.39	10426.9
601.04	10329.4
601.691	10310.6
602.341	10352.5
602.992	10331.3
603.642	10390
604.292	10403.8
604.942	10345.6
605.592	10434.4
606.242	10398.8
606.892	10396.3
607.542	10491.9
608.192	10344.4
608.841	10430
609.491	10400.6
610.14	10425.6
610.79	10306.9
611.439	10310
612.088	10410
612.738	10304.4
613.387	10372.5
614.036	10394.4
614.685	10375.6
615.334	10466.3
615.983	10359.4
616.631	10321.3
617.28	10351.3
617.929	10445.6
618.577	10425
619.226	10482.5
619.874	10397.5
620.523	10381.3
621.171	10365.6
621.819	10537.5
622.467	10411.9
623.115	10168.8
623.763	10428.1
624.411	10501.9
625.059	10276.9
625.707	10443.8
626.355	10429.4
627.002	10254.4
627.65	10348.1
628.297	10371.9
628.945	10518.1
629.592	10339.4
630.239	10386.9
630.887	10477.5
631.534	10421.9
632.181	10394.4
632.828	10385
633.475	10499.4
634.122	10429.4
634.768	10377.5
635.415	10348.1
636.062	10404.4
636.708	10442.5
637.355	10397.5
638.001	10385.6
638.647	10418.1
639.294	10491.3
639.94	10267.5
640.586	10442.5
641.232	10486.3
641.878	10518.1
642.524	10440.6
643.17	10363.8
643.816	10400
644.461	10425.6
645.107	10323.1
645.752	10365.6
646.398	10393.1
647.043	10483.1
647.689	10370.6
648.334	10335
648.979	10399.4
649.624	10512.5
650.269	10390
650.914	10410.6
651.559	10359.4
652.204	10633.8
652.849	10546.9
653.493	10626.9
654.138	10566.3
654.783	10424.4
655.427	10522.5
656.071	10471.9
656.716	10488.1
657.36	10520.6
658.004	10541.3
658.648	10567.5
659.292	10448.1
659.936	10388.1
660.58	10446.9
661.224	10388.8
661.868	10430
662.512	10576.9
663.155	10506.3
663.799	10548.8
664.442	10481.9
665.086	10709.4
665.729	10506.3
666.372	10597.5
667.015	10464.4
667.658	10311.9
668.301	10559.4
668.944	10505
669.587	10500.6
670.23	10656.3
670.873	10622.5
671.516	10635
672.158	10373.1
672.801	10519.4
673.443	10400
674.086	10628.8
674.728	10605.6
675.37	10427.5
676.012	10537.5
676.654	10522.5
677.296	10481.3
677.938	10523.1
678.58	10531.3
679.222	10539.4
679.864	10566.3
680.506	10578.1
681.147	10689.4
681.789	10608.1
682.43	10593.1
683.072	10560.6
683.713	10414.4
684.354	10558.8
684.995	10458.1
685.636	10542.5
686.277	10601.3
686.918	10566.9
687.559	10468.8
688.2	10495
688.841	10465.6
689.482	10533.1
690.122	10624.4
690.763	10520.6
691.403	10449.4
692.044	10525
692.684	10583.8
693.324	10390.6
693.964	10475.6
694.604	10352.5
695.244	10518.1
695.884	10588.8
696.524	10436.9
697.164	10543.1
697.804	10471.3
698.444	10413.8
699.083	10441.9
699.723	10602.5
700.362	10395.6
701.002	10586.9
701.641	10403.1
702.28	10424.4
702.919	10475.6
703.558	10595.6
704.198	10429.4
704.836	10518.8
705.475	10303.1
706.114	10658.1
706.753	10474.4
707.392	10421.9
708.03	10373.8
708.669	10536.9
709.307	10395
709.946	10316.9
710.584	10542.5
711.222	10491.9
711.86	10361.3
712.499	10343.8
713.137	10425.6
713.775	10496.3
714.412	10485.6
715.05	10521.3
715.688	10277.5
716.326	10584.4
716.963	10380
717.601	10416.3
718.238	10425.6
718.876	10656.9
719.513	10426.3
720.15	10421.9
720.788	10403.1
721.425	10480
722.062	10440.6
722.699	10561.9
723.336	10358.1
723.972	10395.6
724.609	10478.1
725.246	10551.9
725.883	10474.4
726.519	10418.8
727.156	10432.5
727.792	10529.4
728.428	10568.8
729.065	10532.5
729.701	10402.5
730.337	10415.6
730.973	10481.3
731.609	10323.1
732.245	10437.5
732.881	10561.9
733.517	10410.6
734.152	10413.8
734.788	10413.1
735.423	10516.3
736.059	10267.5
736.694	10446.3
737.33	10506.3
737.965	10478.1
738.6	10269.4
739.235	10406.3
739.87	10495
740.505	10398.8
741.14	10483.8
741.775	10498.1
742.41	10463.1
743.045	10526.9
743.679	10460
744.314	10505
744.948	10595.6
745.583	10398.8
746.217	10324.4
746.852	10441.9
747.486	10339.4
748.12	10445.6
748.754	10491.3
749.388	10337.5
750.022	10559.4
750.656	10401.3
751.29	10629.4
751.923	10453.1
752.557	10368.8
753.191	10455.6
753.824	10581.3
754.457	10471.3
755.091	10551.3
755.724	10475
756.357	10541.3
756.991	10471.9
757.624	10461.3
758.257	10523.1
758.89	10591.9
759.523	10570
760.155	10648.8
760.788	10453.1
761.421	10487.5
762.053	10455
762.686	10479.4
763.318	10390
763.951	10464.4
764.583	10558.1
765.215	10448.8
765.847	10386.9
766.48	10503.8
767.112	10353.1
767.744	10410
768.375	10205.6
769.007	10428.8
769.639	10590
770.271	10580
770.902	10337.5
771.534	10557.5
772.165	10568.8
772.797	10700.6
773.428	10461.9
774.059	10470.6
774.691	10428.1
775.322	10483.1
775.953	10368.8
776.584	10456.9
777.215	10543.1
777.845	10388.1
778.476	10430.6
779.107	10444.4
779.738	10341.3
780.368	10566.9
780.999	10436.9
781.629	10502.5
782.259	10574.4
782.89	10554.4
783.52	10374.4
784.15	10441.3
784.78	10351.9
785.41	10450.6
786.04	10430
786.67	10264.4
787.3	10384.4
787.929	10549.4
788.559	10543.1
789.189	10521.9
789.818	10483.8
790.448	10559.4
791.077	10425
791.706	10473.8
792.335	10397.5
792.965	10417.5
793.594	10434.4
794.223	10470
794.852	10355
795.481	10386.3
796.109	10436.9
796.738	10461.3
797.367	10585.6
797.995	10530
798.624	10290.6
799.252	10373.8
799.881	10492.5
800.509	10526.9
801.137	10451.3
801.765	10626.3
802.394	10533.8
803.022	10458.1
803.65	10543.8
804.277	10426.3
804.905	10192.5
805.533	10340
806.161	10496.3
806.788	10448.1
807.416	10578.1
808.043	10517.5
808.671	10559.4
809.298	10595
809.925	10366.9
810.553	10483.1
811.18	10320
811.807	10502.5
812.434	10350
813.061	10527.5
813.688	10516.9
814.314	10482.5
814.941	10313.8
815.568	10449.4
816.194	10464.4
816.821	10392.5
817.447	10465
818.074	10450
818.7	10601.9
819.326	10449.4
819.952	10587.5
820.578	10431.3
821.204	10346.3
821.83	10360
822.456	10473.1
823.082	10316.9
823.708	10369.4
824.333	10429.4
824.959	10556.3
825.585	10589.4
826.21	10647.5
826.835	10438.1
827.461	10550.6
828.086	10421.3
828.711	10527.5
829.336	10416.3
829.961	10455
830.586	10600
831.211	10445
831.836	10600
832.461	10557.5
833.085	10620
833.71	10333.1
834.335	10608.8
834.959	10531.9
835.584	10655.6
836.208	10541.3
836.832	10428.1
837.456	10646.3
838.08	10464.4
838.705	10588.1
839.329	10450
839.952	10616.9
840.576	10385.6
841.2	10501.9
841.824	10598.8
842.447	10430.6
843.071	10830.6
843.695	10607.5
844.318	10531.3
844.941	10526.9
845.565	10548.1
846.188	10679.4
846.811	10457.5
847.434	10549.4
848.057	10462.5
848.68	10572.5
849.303	10458.8
849.926	10446.3
850.549	10530.6
851.171	10505.6
851.794	10583.8
852.416	10411.9
853.039	10614.4
853.661	10568.1
854.284	10549.4
854.906	10518.8
855.528	10714.4
856.15	10589.4
856.772	10609.4
857.394	10553.1
858.016	10521.3
858.638	10550
859.26	10471.9
859.882	10443.1
860.503	10480
861.125	10544.4
861.746	10520.6
862.368	10540.6
862.989	10452.5
863.61	10526.3
864.232	10456.9
864.853	10453.1
865.474	10555
866.095	10481.9
866.716	10633.8
867.337	10505.6
867.958	10557.5
868.578	10408.8
869.199	10462.5
869.82	10587.5
870.44	10407.5
871.061	10498.1
871.681	10516.9
872.301	10458.1
872.922	10470
873.542	10595
874.162	10478.8
874.782	10337.5
875.402	10621.9
876.022	10413.8
876.642	10671.9
877.261	10341.3
877.881	10476.9
878.501	10503.1
879.12	10531.9
879.74	10539.4
880.359	10471.9
880.979	10593.8
881.598	10632.5
882.217	10804.4
882.836	10641.3
883.455	10673.8
884.075	10478.1
884.693	10756.3
885.312	10668.1
885.931	10703.1
886.55	10646.3
887.169	10713.1
887.787	10705.6
888.406	10837.5
889.024	10881.9
889.643	10694.4
890.261	10975
890.879	10878.8
891.497	10894.4
892.116	10797.5
892.734	10727.5
893.352	10821.3
893.969	10888.1
894.587	11071.3
895.205	11168.8
895.823	10941.9
896.44	11169.4
897.058	11023.8
897.676	11061.3
898.293	10955
898.91	11097.5
899.528	11172.5
900.145	11127.5
900.762	10968.1
901.379	11283.8
901.996	11096.9
902.613	11176.3
903.23	11220.6
903.847	11131.9
904.464	11180.6
905.08	11185.6
905.697	11135
906.313	11205
906.93	11010
907.546	11136.3
908.163	11120.6
908.779	11000
909.395	10928.1
910.011	11020.6
910.627	10913.8
911.243	11054.4
911.859	10923.8
912.475	10953.1
913.091	10999.4
913.707	10703.1
914.322	10869.4
914.938	10885
915.553	10845.6
916.169	10826.9
916.784	10738.1
917.4	10826.3
918.015	10872.5
918.63	10744.4
919.245	10598.8
919.86	10596.3
920.475	10703.1
